time (s)	charge (C)	time (s)	current (A)
0.000e+000	7.242e-005	0.000e+000	1.448e-005
5.000e+000	1.093e-004	5.000e+000	7.384e-006
1.000e+001	-3.387e-003	1.000e+001	6.992e-004
1.500e+001	-5.144e-003	1.500e+001	3.514e-004
2.000e+001	-6.405e-003	2.000e+001	2.523e-004
2.500e+001	-7.414e-003	2.500e+001	2.017e-004
3.000e+001	-8.265e-003	3.000e+001	1.702e-004
3.500e+001	-9.004e-003	3.500e+001	1.478e-004
4.000e+001	-9.663e-003	4.000e+001	1.317e-004
4.500e+001	-1.026e-002	4.500e+001	1.192e-004
5.000e+001	-1.081e-002	5.000e+001	1.095e-004
5.500e+001	-1.131e-002	5.500e+001	1.011e-004
6.000e+001	-1.178e-002	6.000e+001	9.332e-005
6.500e+001	-1.247e-002	6.500e+001	1.378e-004
7.000e+001	-1.549e-002	7.000e+001	6.042e-004
7.500e+001	-1.825e-002	7.500e+001	5.525e-004
8.000e+001	-2.117e-002	8.000e+001	5.844e-004
8.500e+001	-2.393e-002	8.500e+001	5.508e-004
9.000e+001	-2.672e-002	9.000e+001	5.591e-004
9.500e+001	-2.940e-002	9.500e+001	5.354e-004
1.000e+002	-3.222e-002	1.000e+002	5.639e-004
1.050e+002	-3.472e-002	1.050e+002	5.004e-004
1.100e+002	-3.746e-002	1.100e+002	5.483e-004
1.150e+002	-4.010e-002	1.150e+002	5.274e-004
1.200e+002	-4.272e-002	1.200e+002	5.231e-004
1.250e+002	-4.537e-002	1.250e+002	5.317e-004
1.300e+002	-4.801e-002	1.300e+002	5.281e-004
1.350e+002	-5.068e-002	1.350e+002	5.329e-004
1.400e+002	-5.315e-002	1.400e+002	4.934e-004
1.450e+002	-5.568e-002	1.450e+002	5.068e-004
1.500e+002	-5.825e-002	1.500e+002	5.135e-004
1.550e+002	-6.070e-002	1.550e+002	4.896e-004
1.600e+002	-6.300e-002	1.600e+002	4.604e-004
1.650e+002	-6.541e-002	1.650e+002	4.828e-004
1.700e+002	-6.778e-002	1.700e+002	4.744e-004
1.750e+002	-7.015e-002	1.750e+002	4.737e-004
1.800e+002	-7.238e-002	1.800e+002	4.460e-004
1.850e+002	-7.477e-002	1.850e+002	4.782e-004
1.900e+002	-7.710e-002	1.900e+002	4.657e-004
1.950e+002	-7.940e-002	1.950e+002	4.598e-004
2.000e+002	-8.177e-002	2.000e+002	4.742e-004
2.050e+002	-8.418e-002	2.050e+002	4.812e-004
2.100e+002	-8.637e-002	2.100e+002	4.375e-004
2.150e+002	-8.856e-002	2.150e+002	4.390e-004
2.200e+002	-9.090e-002	2.200e+002	4.677e-004
2.250e+002	-9.314e-002	2.250e+002	4.472e-004
2.300e+002	-9.532e-002	2.300e+002	4.358e-004
2.350e+002	-9.747e-002	2.350e+002	4.309e-004
2.400e+002	-9.971e-002	2.400e+002	4.488e-004
2.450e+002	-1.018e-001	2.450e+002	4.086e-004
2.500e+002	-1.039e-001	2.500e+002	4.308e-004
2.550e+002	-1.061e-001	2.550e+002	4.435e-004
2.600e+002	-1.085e-001	2.600e+002	4.800e-004
2.650e+002	-1.107e-001	2.650e+002	4.245e-004
2.700e+002	-1.128e-001	2.700e+002	4.205e-004
2.750e+002	-1.148e-001	2.750e+002	4.186e-004
2.800e+002	-1.169e-001	2.800e+002	4.117e-004
2.850e+002	-1.190e-001	2.850e+002	4.162e-004
2.900e+002	-1.211e-001	2.900e+002	4.132e-004
2.950e+002	-1.232e-001	2.950e+002	4.299e-004
3.000e+002	-1.253e-001	3.000e+002	4.098e-004
3.050e+002	-1.272e-001	3.050e+002	3.996e-004
3.100e+002	-1.291e-001	3.100e+002	3.792e-004
3.150e+002	-1.312e-001	3.150e+002	4.172e-004
3.200e+002	-1.332e-001	3.200e+002	3.939e-004
3.250e+002	-1.353e-001	3.250e+002	4.294e-004
3.300e+002	-1.374e-001	3.300e+002	4.024e-004
3.350e+002	-1.393e-001	3.350e+002	3.930e-004
3.400e+002	-1.412e-001	3.400e+002	3.830e-004
3.450e+002	-1.433e-001	3.450e+002	4.040e-004
3.500e+002	-1.452e-001	3.500e+002	3.909e-004
3.550e+002	-1.471e-001	3.550e+002	3.810e-004
3.600e+002	-1.490e-001	3.600e+002	3.813e-004
3.650e+002	-1.508e-001	3.650e+002	3.620e-004
3.700e+002	-1.527e-001	3.700e+002	3.770e-004
3.750e+002	-1.545e-001	3.750e+002	3.535e-004
3.800e+002	-1.563e-001	3.800e+002	3.666e-004
3.850e+002	-1.582e-001	3.850e+002	3.726e-004
3.900e+002	-1.600e-001	3.900e+002	3.718e-004
3.950e+002	-1.619e-001	3.950e+002	3.666e-004
4.000e+002	-1.638e-001	4.000e+002	3.892e-004
4.050e+002	-1.657e-001	4.050e+002	3.808e-004
4.100e+002	-1.676e-001	4.100e+002	3.721e-004
4.150e+002	-1.695e-001	4.150e+002	3.779e-004
4.200e+002	-1.713e-001	4.200e+002	3.543e-004
4.250e+002	-1.731e-001	4.250e+002	3.711e-004
4.300e+002	-1.749e-001	4.300e+002	3.661e-004
4.350e+002	-1.768e-001	4.350e+002	3.650e-004
4.400e+002	-1.785e-001	4.400e+002	3.474e-004
4.450e+002	-1.803e-001	4.450e+002	3.653e-004
4.500e+002	-1.821e-001	4.500e+002	3.571e-004
4.550e+002	-1.840e-001	4.550e+002	3.711e-004
4.600e+002	-1.857e-001	4.600e+002	3.452e-004
4.650e+002	-1.875e-001	4.650e+002	3.688e-004
4.700e+002	-1.893e-001	4.700e+002	3.526e-004
4.750e+002	-1.910e-001	4.750e+002	3.502e-004
4.800e+002	-1.928e-001	4.800e+002	3.446e-004
4.850e+002	-1.945e-001	4.850e+002	3.435e-004
4.900e+002	-1.962e-001	4.900e+002	3.427e-004
4.950e+002	-1.979e-001	4.950e+002	3.337e-004
5.000e+002	-1.996e-001	5.000e+002	3.386e-004
5.050e+002	-2.013e-001	5.050e+002	3.396e-004
5.100e+002	-2.029e-001	5.100e+002	3.345e-004
5.150e+002	-2.046e-001	5.150e+002	3.277e-004
5.200e+002	-2.062e-001	5.200e+002	3.321e-004
5.250e+002	-2.078e-001	5.250e+002	3.202e-004
5.300e+002	-2.094e-001	5.300e+002	3.190e-004
5.350e+002	-2.111e-001	5.350e+002	3.316e-004
5.400e+002	-2.127e-001	5.400e+002	3.220e-004
5.450e+002	-2.143e-001	5.450e+002	3.249e-004
5.500e+002	-2.159e-001	5.500e+002	3.226e-004
5.550e+002	-2.176e-001	5.550e+002	3.394e-004
5.600e+002	-2.193e-001	5.600e+002	3.260e-004
5.650e+002	-2.209e-001	5.650e+002	3.278e-004
5.700e+002	-2.225e-001	5.700e+002	3.153e-004
5.750e+002	-2.241e-001	5.750e+002	3.270e-004
5.800e+002	-2.258e-001	5.800e+002	3.314e-004
5.850e+002	-2.274e-001	5.850e+002	3.188e-004
5.900e+002	-2.290e-001	5.900e+002	3.261e-004
5.950e+002	-2.306e-001	5.950e+002	3.228e-004
6.000e+002	-2.322e-001	6.000e+002	3.234e-004
6.050e+002	-2.339e-001	6.050e+002	3.256e-004
6.100e+002	-2.354e-001	6.100e+002	3.097e-004
6.150e+002	-2.369e-001	6.150e+002	3.068e-004
6.200e+002	-2.386e-001	6.200e+002	3.304e-004
6.250e+002	-2.401e-001	6.250e+002	3.060e-004
6.300e+002	-2.417e-001	6.300e+002	3.094e-004
6.350e+002	-2.431e-001	6.350e+002	2.950e-004
6.400e+002	-2.448e-001	6.400e+002	3.347e-004
6.450e+002	-2.463e-001	6.450e+002	2.925e-004
6.500e+002	-2.478e-001	6.500e+002	3.122e-004
6.550e+002	-2.494e-001	6.550e+002	3.055e-004
6.600e+002	-2.509e-001	6.600e+002	3.113e-004
6.650e+002	-2.525e-001	6.650e+002	3.120e-004
6.700e+002	-2.539e-001	6.700e+002	2.892e-004
6.750e+002	-2.554e-001	6.750e+002	2.944e-004
6.800e+002	-2.570e-001	6.800e+002	3.107e-004
6.850e+002	-2.585e-001	6.850e+002	2.999e-004
6.900e+002	-2.599e-001	6.900e+002	2.950e-004
6.950e+002	-2.614e-001	6.950e+002	3.005e-004
7.000e+002	-2.629e-001	7.000e+002	2.973e-004
7.050e+002	-2.644e-001	7.050e+002	2.953e-004
7.100e+002	-2.658e-001	7.100e+002	2.871e-004
7.150e+002	-2.673e-001	7.150e+002	2.851e-004
7.200e+002	-2.687e-001	7.200e+002	2.910e-004
7.250e+002	-2.702e-001	7.250e+002	2.878e-004
7.300e+002	-2.717e-001	7.300e+002	3.046e-004
7.350e+002	-2.731e-001	7.350e+002	2.923e-004
7.400e+002	-2.746e-001	7.400e+002	2.960e-004
7.450e+002	-2.761e-001	7.450e+002	2.903e-004
7.500e+002	-2.775e-001	7.500e+002	2.883e-004
7.550e+002	-2.789e-001	7.550e+002	2.875e-004
7.600e+002	-2.804e-001	7.600e+002	2.819e-004
7.650e+002	-2.818e-001	7.650e+002	2.856e-004
7.700e+002	-2.832e-001	7.700e+002	2.895e-004
7.750e+002	-2.847e-001	7.750e+002	2.934e-004
7.800e+002	-2.861e-001	7.800e+002	2.761e-004
7.850e+002	-2.875e-001	7.850e+002	2.755e-004
7.900e+002	-2.889e-001	7.900e+002	2.788e-004
7.950e+002	-2.903e-001	7.950e+002	2.829e-004
8.000e+002	-2.917e-001	8.000e+002	2.803e-004
8.050e+002	-2.931e-001	8.050e+002	2.837e-004
8.100e+002	-2.945e-001	8.100e+002	2.741e-004
8.150e+002	-2.958e-001	8.150e+002	2.745e-004
8.200e+002	-2.973e-001	8.200e+002	2.908e-004
8.250e+002	-2.986e-001	8.250e+002	2.703e-004
8.300e+002	-3.000e-001	8.300e+002	2.827e-004
8.350e+002	-3.015e-001	8.350e+002	2.833e-004
8.400e+002	-3.028e-001	8.400e+002	2.706e-004
8.450e+002	-3.042e-001	8.450e+002	2.674e-004
8.500e+002	-3.055e-001	8.500e+002	2.725e-004
8.550e+002	-3.069e-001	8.550e+002	2.795e-004
8.600e+002	-3.083e-001	8.600e+002	2.691e-004
8.650e+002	-3.096e-001	8.650e+002	2.676e-004
8.700e+002	-3.110e-001	8.700e+002	2.724e-004
8.750e+002	-3.123e-001	8.750e+002	2.705e-004
8.800e+002	-3.136e-001	8.800e+002	2.653e-004
8.850e+002	-3.150e-001	8.850e+002	2.713e-004
8.900e+002	-3.164e-001	8.900e+002	2.748e-004
8.950e+002	-3.177e-001	8.950e+002	2.741e-004
9.000e+002	-3.191e-001	9.000e+002	2.627e-004
9.050e+002	-3.204e-001	9.050e+002	2.652e-004
9.100e+002	-3.218e-001	9.100e+002	2.797e-004
9.150e+002	-3.231e-001	9.150e+002	2.686e-004
9.200e+002	-3.244e-001	9.200e+002	2.572e-004
9.250e+002	-3.258e-001	9.250e+002	2.714e-004
9.300e+002	-3.271e-001	9.300e+002	2.594e-004
9.350e+002	-3.284e-001	9.350e+002	2.642e-004
9.400e+002	-3.296e-001	9.400e+002	2.510e-004
9.450e+002	-3.310e-001	9.450e+002	2.784e-004
9.500e+002	-3.324e-001	9.500e+002	2.808e-004
9.550e+002	-3.338e-001	9.550e+002	2.697e-004
9.600e+002	-3.351e-001	9.600e+002	2.606e-004
9.650e+002	-3.364e-001	9.650e+002	2.604e-004
9.700e+002	-3.377e-001	9.700e+002	2.630e-004
9.750e+002	-3.390e-001	9.750e+002	2.632e-004
9.800e+002	-3.403e-001	9.800e+002	2.640e-004
9.850e+002	-3.416e-001	9.850e+002	2.612e-004
9.900e+002	-3.429e-001	9.900e+002	2.523e-004
9.950e+002	-3.442e-001	9.950e+002	2.544e-004
1.000e+003	-3.455e-001	1.000e+003	2.548e-004
1.005e+003	-3.467e-001	1.005e+003	2.589e-004
1.010e+003	-3.480e-001	1.010e+003	2.440e-004
1.015e+003	-3.492e-001	1.015e+003	2.532e-004
1.020e+003	-3.506e-001	1.020e+003	2.631e-004
1.025e+003	-3.518e-001	1.025e+003	2.524e-004
1.030e+003	-3.531e-001	1.030e+003	2.525e-004
1.035e+003	-3.543e-001	1.035e+003	2.485e-004
1.040e+003	-3.556e-001	1.040e+003	2.545e-004
1.045e+003	-3.568e-001	1.045e+003	2.484e-004
1.050e+003	-3.580e-001	1.050e+003	2.392e-004
1.055e+003	-3.593e-001	1.055e+003	2.468e-004
1.060e+003	-3.605e-001	1.060e+003	2.428e-004
1.065e+003	-3.617e-001	1.065e+003	2.396e-004
1.070e+003	-3.629e-001	1.070e+003	2.501e-004
1.075e+003	-3.642e-001	1.075e+003	2.487e-004
1.080e+003	-3.654e-001	1.080e+003	2.450e-004
1.085e+003	-3.666e-001	1.085e+003	2.336e-004
1.090e+003	-3.678e-001	1.090e+003	2.380e-004
1.095e+003	-3.690e-001	1.095e+003	2.397e-004
1.100e+003	-3.701e-001	1.100e+003	2.332e-004
1.105e+003	-3.713e-001	1.105e+003	2.421e-004
1.110e+003	-3.725e-001	1.110e+003	2.428e-004
1.115e+003	-3.738e-001	1.115e+003	2.552e-004
1.120e+003	-3.750e-001	1.120e+003	2.435e-004
1.125e+003	-3.762e-001	1.125e+003	2.312e-004
1.130e+003	-3.774e-001	1.130e+003	2.458e-004
1.135e+003	-3.787e-001	1.135e+003	2.484e-004
1.140e+003	-3.798e-001	1.140e+003	2.334e-004
1.145e+003	-3.810e-001	1.145e+003	2.415e-004
1.150e+003	-3.823e-001	1.150e+003	2.472e-004
1.155e+003	-3.834e-001	1.155e+003	2.344e-004
1.160e+003	-3.846e-001	1.160e+003	2.372e-004
1.165e+003	-3.859e-001	1.165e+003	2.451e-004
1.170e+003	-3.871e-001	1.170e+003	2.420e-004
1.175e+003	-3.883e-001	1.175e+003	2.482e-004
1.180e+003	-3.895e-001	1.180e+003	2.304e-004
1.185e+003	-3.907e-001	1.185e+003	2.406e-004
1.190e+003	-3.919e-001	1.190e+003	2.491e-004
1.195e+003	-3.931e-001	1.195e+003	2.283e-004
1.200e+003	-3.942e-001	1.200e+003	2.337e-004
1.205e+003	-3.954e-001	1.205e+003	2.433e-004
1.210e+003	-3.966e-001	1.210e+003	2.371e-004
1.215e+003	-3.978e-001	1.215e+003	2.344e-004
1.220e+003	-3.989e-001	1.220e+003	2.299e-004
1.225e+003	-4.002e-001	1.225e+003	2.418e-004
1.230e+003	-4.013e-001	1.230e+003	2.260e-004
1.235e+003	-4.024e-001	1.235e+003	2.325e-004
1.240e+003	-4.036e-001	1.240e+003	2.303e-004
1.245e+003	-4.048e-001	1.245e+003	2.344e-004
1.250e+003	-4.059e-001	1.250e+003	2.340e-004
1.255e+003	-4.071e-001	1.255e+003	2.234e-004
1.260e+003	-4.083e-001	1.260e+003	2.414e-004
1.265e+003	-4.094e-001	1.265e+003	2.244e-004
1.270e+003	-4.105e-001	1.270e+003	2.277e-004
1.275e+003	-4.117e-001	1.275e+003	2.253e-004
1.280e+003	-4.128e-001	1.280e+003	2.250e-004
1.285e+003	-4.139e-001	1.285e+003	2.245e-004
1.290e+003	-4.150e-001	1.290e+003	2.253e-004
1.295e+003	-4.161e-001	1.295e+003	2.244e-004
1.300e+003	-4.173e-001	1.300e+003	2.277e-004
1.305e+003	-4.184e-001	1.305e+003	2.271e-004
1.310e+003	-4.195e-001	1.310e+003	2.216e-004
1.315e+003	-4.206e-001	1.315e+003	2.198e-004
1.320e+003	-4.218e-001	1.320e+003	2.248e-004
1.325e+003	-4.229e-001	1.325e+003	2.258e-004
1.330e+003	-4.240e-001	1.330e+003	2.244e-004
1.335e+003	-4.251e-001	1.335e+003	2.192e-004
1.340e+003	-4.262e-001	1.340e+003	2.256e-004
1.345e+003	-4.274e-001	1.345e+003	2.309e-004
1.350e+003	-4.285e-001	1.350e+003	2.208e-004
1.355e+003	-4.296e-001	1.355e+003	2.149e-004
1.360e+003	-4.307e-001	1.360e+003	2.277e-004
1.365e+003	-4.318e-001	1.365e+003	2.263e-004
1.370e+003	-4.329e-001	1.370e+003	2.228e-004
1.375e+003	-4.341e-001	1.375e+003	2.229e-004
1.380e+003	-4.352e-001	1.380e+003	2.223e-004
1.385e+003	-4.363e-001	1.385e+003	2.222e-004
1.390e+003	-4.374e-001	1.390e+003	2.181e-004
1.395e+003	-4.385e-001	1.395e+003	2.313e-004
1.400e+003	-4.396e-001	1.400e+003	2.190e-004
1.405e+003	-4.407e-001	1.405e+003	2.246e-004
1.410e+003	-4.419e-001	1.410e+003	2.222e-004
1.415e+003	-4.430e-001	1.415e+003	2.250e-004
1.420e+003	-4.441e-001	1.420e+003	2.219e-004
1.425e+003	-4.452e-001	1.425e+003	2.240e-004
1.430e+003	-4.463e-001	1.430e+003	2.091e-004
1.435e+003	-4.473e-001	1.435e+003	2.179e-004
1.440e+003	-4.485e-001	1.440e+003	2.226e-004
1.445e+003	-4.496e-001	1.445e+003	2.219e-004
1.450e+003	-4.506e-001	1.450e+003	2.136e-004
1.455e+003	-4.517e-001	1.455e+003	2.158e-004
1.460e+003	-4.529e-001	1.460e+003	2.268e-004
1.465e+003	-4.539e-001	1.465e+003	2.170e-004
1.470e+003	-4.550e-001	1.470e+003	2.124e-004
1.475e+003	-4.561e-001	1.475e+003	2.167e-004
1.480e+003	-4.571e-001	1.480e+003	2.125e-004
1.485e+003	-4.582e-001	1.485e+003	2.136e-004
1.490e+003	-4.593e-001	1.490e+003	2.180e-004
1.495e+003	-4.603e-001	1.495e+003	2.042e-004
1.500e+003	-4.614e-001	1.500e+003	2.184e-004
1.505e+003	-4.625e-001	1.505e+003	2.188e-004
1.510e+003	-4.636e-001	1.510e+003	2.112e-004
1.515e+003	-4.646e-001	1.515e+003	2.126e-004
1.520e+003	-4.657e-001	1.520e+003	2.205e-004
1.525e+003	-4.668e-001	1.525e+003	2.147e-004
1.530e+003	-4.679e-001	1.530e+003	2.116e-004
1.535e+003	-4.689e-001	1.535e+003	2.093e-004
1.540e+003	-4.700e-001	1.540e+003	2.260e-004
1.545e+003	-4.711e-001	1.545e+003	2.055e-004
1.550e+003	-4.721e-001	1.550e+003	2.106e-004
1.555e+003	-4.732e-001	1.555e+003	2.131e-004
1.560e+003	-4.742e-001	1.560e+003	2.075e-004
1.565e+003	-4.753e-001	1.565e+003	2.155e-004
1.570e+003	-4.763e-001	1.570e+003	2.070e-004
1.575e+003	-4.774e-001	1.575e+003	2.199e-004
1.580e+003	-4.785e-001	1.580e+003	2.068e-004
1.585e+003	-4.795e-001	1.585e+003	2.125e-004
1.590e+003	-4.806e-001	1.590e+003	2.123e-004
1.595e+003	-4.816e-001	1.595e+003	2.046e-004
1.600e+003	-4.827e-001	1.600e+003	2.174e-004
1.605e+003	-4.838e-001	1.605e+003	2.202e-004
1.610e+003	-4.848e-001	1.610e+003	2.010e-004
1.615e+003	-4.859e-001	1.615e+003	2.080e-004
1.620e+003	-4.869e-001	1.620e+003	2.149e-004
1.625e+003	-4.880e-001	1.625e+003	2.072e-004
1.630e+003	-4.890e-001	1.630e+003	2.046e-004
1.635e+003	-4.900e-001	1.635e+003	2.065e-004
1.640e+003	-4.911e-001	1.640e+003	2.164e-004
1.645e+003	-4.921e-001	1.645e+003	2.096e-004
1.650e+003	-4.932e-001	1.650e+003	2.102e-004
1.655e+003	-4.942e-001	1.655e+003	2.018e-004
1.660e+003	-4.952e-001	1.660e+003	2.023e-004
1.665e+003	-4.963e-001	1.665e+003	2.064e-004
1.670e+003	-4.973e-001	1.670e+003	2.124e-004
1.675e+003	-4.983e-001	1.675e+003	1.997e-004
1.680e+003	-4.994e-001	1.680e+003	2.141e-004
1.685e+003	-5.004e-001	1.685e+003	2.045e-004
1.690e+003	-5.014e-001	1.690e+003	1.950e-004
1.695e+003	-5.024e-001	1.695e+003	2.007e-004
1.700e+003	-5.034e-001	1.700e+003	2.061e-004
1.705e+003	-5.044e-001	1.705e+003	2.044e-004
1.710e+003	-5.055e-001	1.710e+003	2.093e-004
1.715e+003	-5.065e-001	1.715e+003	1.997e-004
1.720e+003	-5.075e-001	1.720e+003	1.986e-004
1.725e+003	-5.085e-001	1.725e+003	2.030e-004
1.730e+003	-5.095e-001	1.730e+003	2.007e-004
1.735e+003	-5.105e-001	1.735e+003	1.994e-004
1.740e+003	-5.115e-001	1.740e+003	1.996e-004
1.745e+003	-5.125e-001	1.745e+003	2.102e-004
1.750e+003	-5.136e-001	1.750e+003	2.066e-004
1.755e+003	-5.146e-001	1.755e+003	2.054e-004
1.760e+003	-5.156e-001	1.760e+003	2.015e-004
1.765e+003	-5.166e-001	1.765e+003	1.974e-004
1.770e+003	-5.176e-001	1.770e+003	2.050e-004
1.775e+003	-5.186e-001	1.775e+003	1.994e-004
1.780e+003	-5.196e-001	1.780e+003	2.038e-004
1.785e+003	-5.207e-001	1.785e+003	2.076e-004
1.790e+003	-5.217e-001	1.790e+003	2.010e-004
1.795e+003	-5.227e-001	1.795e+003	2.017e-004
1.800e+003	-5.237e-001	1.800e+003	2.010e-004
1.805e+003	-5.247e-001	1.805e+003	2.088e-004
1.810e+003	-5.258e-001	1.810e+003	2.039e-004
1.815e+003	-5.268e-001	1.815e+003	2.062e-004
1.820e+003	-5.278e-001	1.820e+003	1.934e-004
1.825e+003	-5.288e-001	1.825e+003	2.111e-004
1.830e+003	-5.298e-001	1.830e+003	2.077e-004
1.835e+003	-5.308e-001	1.835e+003	1.955e-004
1.840e+003	-5.318e-001	1.840e+003	1.993e-004
1.845e+003	-5.329e-001	1.845e+003	2.075e-004
1.850e+003	-5.339e-001	1.850e+003	2.040e-004
1.855e+003	-5.349e-001	1.855e+003	2.056e-004
1.860e+003	-5.359e-001	1.860e+003	2.018e-004
1.865e+003	-5.369e-001	1.865e+003	1.909e-004
1.870e+003	-5.379e-001	1.870e+003	2.001e-004
1.875e+003	-5.389e-001	1.875e+003	2.087e-004
1.880e+003	-5.399e-001	1.880e+003	1.998e-004
1.885e+003	-5.409e-001	1.885e+003	1.968e-004
1.890e+003	-5.419e-001	1.890e+003	1.959e-004
1.895e+003	-5.429e-001	1.895e+003	2.012e-004
1.900e+003	-5.439e-001	1.900e+003	2.066e-004
1.905e+003	-5.449e-001	1.905e+003	1.958e-004
1.910e+003	-5.459e-001	1.910e+003	1.938e-004
1.915e+003	-5.469e-001	1.915e+003	1.973e-004
1.920e+003	-5.478e-001	1.920e+003	1.907e-004
1.925e+003	-5.488e-001	1.925e+003	1.964e-004
1.930e+003	-5.498e-001	1.930e+003	1.983e-004
1.935e+003	-5.508e-001	1.935e+003	1.996e-004
1.940e+003	-5.518e-001	1.940e+003	1.996e-004
1.945e+003	-5.528e-001	1.945e+003	1.995e-004
1.950e+003	-5.537e-001	1.950e+003	1.937e-004
1.955e+003	-5.547e-001	1.955e+003	1.951e-004
1.960e+003	-5.557e-001	1.960e+003	1.976e-004
1.965e+003	-5.567e-001	1.965e+003	1.992e-004
1.970e+003	-5.577e-001	1.970e+003	1.897e-004
1.975e+003	-5.586e-001	1.975e+003	1.938e-004
1.980e+003	-5.596e-001	1.980e+003	1.978e-004
1.985e+003	-5.606e-001	1.985e+003	1.951e-004
1.990e+003	-5.616e-001	1.990e+003	1.964e-004
1.995e+003	-5.626e-001	1.995e+003	2.003e-004
2.000e+003	-5.636e-001	2.000e+003	1.986e-004
2.005e+003	-5.645e-001	2.005e+003	1.969e-004
2.010e+003	-5.655e-001	2.010e+003	1.973e-004
2.015e+003	-5.665e-001	2.015e+003	1.909e-004
2.020e+003	-5.675e-001	2.020e+003	1.950e-004
2.025e+003	-5.685e-001	2.025e+003	1.985e-004
2.030e+003	-5.695e-001	2.030e+003	2.046e-004
2.035e+003	-5.705e-001	2.035e+003	1.987e-004
2.040e+003	-5.714e-001	2.040e+003	1.897e-004
2.045e+003	-5.724e-001	2.045e+003	2.020e-004
2.050e+003	-5.734e-001	2.050e+003	1.959e-004
2.055e+003	-5.744e-001	2.055e+003	1.916e-004
2.060e+003	-5.754e-001	2.060e+003	2.015e-004
2.065e+003	-5.764e-001	2.065e+003	1.998e-004
2.070e+003	-5.774e-001	2.070e+003	1.998e-004
2.075e+003	-5.784e-001	2.075e+003	2.026e-004
2.080e+003	-5.794e-001	2.080e+003	1.971e-004
2.085e+003	-5.803e-001	2.085e+003	1.920e-004
2.090e+003	-5.813e-001	2.090e+003	1.978e-004
2.095e+003	-5.823e-001	2.095e+003	1.958e-004
2.100e+003	-5.833e-001	2.100e+003	1.943e-004
2.105e+003	-5.842e-001	2.105e+003	1.936e-004
2.110e+003	-5.852e-001	2.110e+003	1.949e-004
2.115e+003	-5.862e-001	2.115e+003	1.946e-004
2.120e+003	-5.872e-001	2.120e+003	2.014e-004
2.125e+003	-5.881e-001	2.125e+003	1.910e-004
2.130e+003	-5.891e-001	2.130e+003	1.912e-004
2.135e+003	-5.901e-001	2.135e+003	1.994e-004
2.140e+003	-5.911e-001	2.140e+003	1.919e-004
2.145e+003	-5.920e-001	2.145e+003	1.878e-004
2.150e+003	-5.929e-001	2.150e+003	1.882e-004
2.155e+003	-5.939e-001	2.155e+003	1.852e-004
2.160e+003	-5.948e-001	2.160e+003	1.923e-004
