time (s)	charge (C)	time (s)	current (A)
0.000e+000	8.116e-006	0.000e+000	1.623e-006
5.000e+000	1.423e-005	5.000e+000	1.223e-006
1.000e+001	-4.400e-003	1.000e+001	8.829e-004
1.500e+001	-6.591e-003	1.500e+001	4.382e-004
2.000e+001	-8.497e-003	2.000e+001	3.813e-004
2.500e+001	-1.014e-002	2.500e+001	3.292e-004
3.000e+001	-1.171e-002	3.000e+001	3.126e-004
3.500e+001	-1.326e-002	3.500e+001	3.102e-004
4.000e+001	-1.471e-002	4.000e+001	2.905e-004
4.500e+001	-1.615e-002	4.500e+001	2.889e-004
5.000e+001	-1.757e-002	5.000e+001	2.837e-004
5.500e+001	-1.888e-002	5.500e+001	2.626e-004
6.000e+001	-2.019e-002	6.000e+001	2.614e-004
6.500e+001	-2.151e-002	6.500e+001	2.631e-004
7.000e+001	-2.276e-002	7.000e+001	2.515e-004
7.500e+001	-2.407e-002	7.500e+001	2.610e-004
8.000e+001	-2.531e-002	8.000e+001	2.474e-004
8.500e+001	-2.652e-002	8.500e+001	2.427e-004
9.000e+001	-2.772e-002	9.000e+001	2.404e-004
9.500e+001	-2.896e-002	9.500e+001	2.472e-004
1.000e+002	-3.014e-002	1.000e+002	2.371e-004
1.050e+002	-3.133e-002	1.050e+002	2.378e-004
1.100e+002	-3.248e-002	1.100e+002	2.300e-004
1.150e+002	-3.366e-002	1.150e+002	2.350e-004
1.200e+002	-3.488e-002	1.200e+002	2.447e-004
1.250e+002	-3.601e-002	1.250e+002	2.259e-004
1.300e+002	-3.720e-002	1.300e+002	2.372e-004
1.350e+002	-3.837e-002	1.350e+002	2.357e-004
1.400e+002	-3.955e-002	1.400e+002	2.346e-004
1.450e+002	-4.068e-002	1.450e+002	2.276e-004
1.500e+002	-4.183e-002	1.500e+002	2.296e-004
1.550e+002	-4.297e-002	1.550e+002	2.285e-004
1.600e+002	-4.411e-002	1.600e+002	2.268e-004
1.650e+002	-4.527e-002	1.650e+002	2.320e-004
1.700e+002	-4.640e-002	1.700e+002	2.260e-004
1.750e+002	-4.752e-002	1.750e+002	2.234e-004
1.800e+002	-4.862e-002	1.800e+002	2.213e-004
1.850e+002	-4.975e-002	1.850e+002	2.256e-004
1.900e+002	-5.087e-002	1.900e+002	2.251e-004
1.950e+002	-5.203e-002	1.950e+002	2.315e-004
2.000e+002	-5.314e-002	2.000e+002	2.210e-004
2.050e+002	-5.425e-002	2.050e+002	2.217e-004
2.100e+002	-5.536e-002	2.100e+002	2.225e-004
2.150e+002	-5.649e-002	2.150e+002	2.255e-004
2.200e+002	-5.756e-002	2.200e+002	2.157e-004
2.250e+002	-5.864e-002	2.250e+002	2.161e-004
2.300e+002	-5.975e-002	2.300e+002	2.213e-004
2.350e+002	-6.086e-002	2.350e+002	2.224e-004
2.400e+002	-6.193e-002	2.400e+002	2.130e-004
2.450e+002	-6.304e-002	2.450e+002	2.226e-004
2.500e+002	-6.413e-002	2.500e+002	2.175e-004
2.550e+002	-6.523e-002	2.550e+002	2.210e-004
2.600e+002	-6.633e-002	2.600e+002	2.189e-004
2.650e+002	-6.744e-002	2.650e+002	2.232e-004
2.700e+002	-6.850e-002	2.700e+002	2.120e-004
2.750e+002	-6.966e-002	2.750e+002	2.316e-004
2.800e+002	-7.073e-002	2.800e+002	2.135e-004
2.850e+002	-7.184e-002	2.850e+002	2.217e-004
2.900e+002	-7.292e-002	2.900e+002	2.159e-004
2.950e+002	-7.397e-002	2.950e+002	2.113e-004
3.000e+002	-7.507e-002	3.000e+002	2.198e-004
3.050e+002	-7.612e-002	3.050e+002	2.101e-004
3.100e+002	-7.724e-002	3.100e+002	2.230e-004
3.150e+002	-7.833e-002	3.150e+002	2.183e-004
3.200e+002	-7.945e-002	3.200e+002	2.237e-004
3.250e+002	-8.049e-002	3.250e+002	2.093e-004
3.300e+002	-8.156e-002	3.300e+002	2.128e-004
3.350e+002	-8.264e-002	3.350e+002	2.175e-004
3.400e+002	-8.366e-002	3.400e+002	2.032e-004
3.450e+002	-8.477e-002	3.450e+002	2.223e-004
3.500e+002	-8.585e-002	3.500e+002	2.163e-004
3.550e+002	-8.692e-002	3.550e+002	2.137e-004
3.600e+002	-8.801e-002	3.600e+002	2.170e-004
3.650e+002	-8.907e-002	3.650e+002	2.129e-004
3.700e+002	-9.014e-002	3.700e+002	2.149e-004
3.750e+002	-9.119e-002	3.750e+002	2.084e-004
3.800e+002	-9.227e-002	3.800e+002	2.174e-004
3.850e+002	-9.332e-002	3.850e+002	2.098e-004
3.900e+002	-9.439e-002	3.900e+002	2.132e-004
3.950e+002	-9.546e-002	3.950e+002	2.149e-004
4.000e+002	-9.649e-002	4.000e+002	2.055e-004
4.050e+002	-9.753e-002	4.050e+002	2.089e-004
4.100e+002	-9.858e-002	4.100e+002	2.096e-004
4.150e+002	-9.970e-002	4.150e+002	2.238e-004
4.200e+002	-1.007e-001	4.200e+002	2.040e-004
4.250e+002	-1.018e-001	4.250e+002	2.122e-004
4.300e+002	-1.028e-001	4.300e+002	2.107e-004
4.350e+002	-1.039e-001	4.350e+002	2.109e-004
4.400e+002	-1.049e-001	4.400e+002	2.036e-004
4.450e+002	-1.059e-001	4.450e+002	2.038e-004
4.500e+002	-1.070e-001	4.500e+002	2.196e-004
4.550e+002	-1.081e-001	4.550e+002	2.140e-004
4.600e+002	-1.092e-001	4.600e+002	2.138e-004
4.650e+002	-1.102e-001	4.650e+002	2.129e-004
4.700e+002	-1.113e-001	4.700e+002	2.138e-004
4.750e+002	-1.123e-001	4.750e+002	2.104e-004
4.800e+002	-1.134e-001	4.800e+002	2.161e-004
4.850e+002	-1.145e-001	4.850e+002	2.150e-004
4.900e+002	-1.156e-001	4.900e+002	2.131e-004
4.950e+002	-1.167e-001	4.950e+002	2.226e-004
5.000e+002	-1.178e-001	5.000e+002	2.335e-004
5.050e+002	-1.189e-001	5.050e+002	2.090e-004
5.100e+002	-1.200e-001	5.100e+002	2.138e-004
5.150e+002	-1.210e-001	5.150e+002	2.141e-004
5.200e+002	-1.221e-001	5.200e+002	2.110e-004
5.250e+002	-1.232e-001	5.250e+002	2.197e-004
5.300e+002	-1.243e-001	5.300e+002	2.135e-004
5.350e+002	-1.253e-001	5.350e+002	2.149e-004
5.400e+002	-1.264e-001	5.400e+002	2.133e-004
5.450e+002	-1.274e-001	5.450e+002	2.110e-004
5.500e+002	-1.285e-001	5.500e+002	2.011e-004
5.550e+002	-1.295e-001	5.550e+002	2.084e-004
5.600e+002	-1.305e-001	5.600e+002	2.094e-004
5.650e+002	-1.316e-001	5.650e+002	2.159e-004
5.700e+002	-1.327e-001	5.700e+002	2.056e-004
5.750e+002	-1.337e-001	5.750e+002	2.160e-004
5.800e+002	-1.348e-001	5.800e+002	2.064e-004
5.850e+002	-1.358e-001	5.850e+002	2.070e-004
5.900e+002	-1.368e-001	5.900e+002	2.089e-004
5.950e+002	-1.379e-001	5.950e+002	2.153e-004
6.000e+002	-1.390e-001	6.000e+002	2.180e-004
6.050e+002	-1.401e-001	6.050e+002	2.117e-004
6.100e+002	-1.411e-001	6.100e+002	2.145e-004
6.150e+002	-1.422e-001	6.150e+002	2.033e-004
6.200e+002	-1.432e-001	6.200e+002	2.040e-004
6.250e+002	-1.442e-001	6.250e+002	2.085e-004
6.300e+002	-1.452e-001	6.300e+002	2.043e-004
6.350e+002	-1.463e-001	6.350e+002	2.115e-004
6.400e+002	-1.473e-001	6.400e+002	2.085e-004
6.450e+002	-1.485e-001	6.450e+002	2.270e-004
6.500e+002	-1.495e-001	6.500e+002	2.133e-004
6.550e+002	-1.506e-001	6.550e+002	2.090e-004
6.600e+002	-1.518e-001	6.600e+002	2.336e-004
6.650e+002	-1.528e-001	6.650e+002	2.119e-004
6.700e+002	-1.538e-001	6.700e+002	2.076e-004
6.750e+002	-1.549e-001	6.750e+002	2.043e-004
6.800e+002	-1.559e-001	6.800e+002	2.025e-004
6.850e+002	-1.570e-001	6.850e+002	2.149e-004
6.900e+002	-1.579e-001	6.900e+002	1.985e-004
6.950e+002	-1.590e-001	6.950e+002	2.121e-004
7.000e+002	-1.600e-001	7.000e+002	2.043e-004
7.050e+002	-1.611e-001	7.050e+002	2.079e-004
7.100e+002	-1.621e-001	7.100e+002	2.031e-004
7.150e+002	-1.631e-001	7.150e+002	2.036e-004
7.200e+002	-1.641e-001	7.200e+002	2.055e-004
7.250e+002	-1.652e-001	7.250e+002	2.105e-004
7.300e+002	-1.662e-001	7.300e+002	2.047e-004
7.350e+002	-1.672e-001	7.350e+002	2.068e-004
7.400e+002	-1.683e-001	7.400e+002	2.063e-004
7.450e+002	-1.693e-001	7.450e+002	2.103e-004
7.500e+002	-1.704e-001	7.500e+002	2.099e-004
7.550e+002	-1.714e-001	7.550e+002	2.024e-004
7.600e+002	-1.724e-001	7.600e+002	2.098e-004
7.650e+002	-1.735e-001	7.650e+002	2.072e-004
7.700e+002	-1.745e-001	7.700e+002	2.090e-004
7.750e+002	-1.756e-001	7.750e+002	2.088e-004
7.800e+002	-1.766e-001	7.800e+002	2.077e-004
7.850e+002	-1.776e-001	7.850e+002	2.036e-004
7.900e+002	-1.786e-001	7.900e+002	1.951e-004
7.950e+002	-1.796e-001	7.950e+002	2.066e-004
8.000e+002	-1.806e-001	8.000e+002	2.037e-004
8.050e+002	-1.817e-001	8.050e+002	2.042e-004
8.100e+002	-1.827e-001	8.100e+002	2.120e-004
8.150e+002	-1.838e-001	8.150e+002	2.087e-004
8.200e+002	-1.848e-001	8.200e+002	2.146e-004
8.250e+002	-1.859e-001	8.250e+002	2.063e-004
8.300e+002	-1.869e-001	8.300e+002	2.058e-004
8.350e+002	-1.879e-001	8.350e+002	2.050e-004
8.400e+002	-1.889e-001	8.400e+002	1.975e-004
8.450e+002	-1.899e-001	8.450e+002	2.069e-004
8.500e+002	-1.910e-001	8.500e+002	2.039e-004
8.550e+002	-1.920e-001	8.550e+002	2.009e-004
8.600e+002	-1.930e-001	8.600e+002	1.967e-004
8.650e+002	-1.940e-001	8.650e+002	2.075e-004
8.700e+002	-1.950e-001	8.700e+002	2.067e-004
8.750e+002	-1.960e-001	8.750e+002	2.037e-004
8.800e+002	-1.971e-001	8.800e+002	2.040e-004
8.850e+002	-1.981e-001	8.850e+002	2.004e-004
8.900e+002	-1.991e-001	8.900e+002	2.007e-004
8.950e+002	-2.001e-001	8.950e+002	2.059e-004
9.000e+002	-2.011e-001	9.000e+002	2.055e-004
9.050e+002	-2.021e-001	9.050e+002	1.989e-004
9.100e+002	-2.031e-001	9.100e+002	1.970e-004
9.150e+002	-2.041e-001	9.150e+002	1.972e-004
9.200e+002	-2.051e-001	9.200e+002	1.923e-004
9.250e+002	-2.061e-001	9.250e+002	2.040e-004
9.300e+002	-2.071e-001	9.300e+002	2.046e-004
9.350e+002	-2.081e-001	9.350e+002	1.980e-004
9.400e+002	-2.091e-001	9.400e+002	2.025e-004
9.450e+002	-2.101e-001	9.450e+002	2.035e-004
9.500e+002	-2.111e-001	9.500e+002	2.043e-004
9.550e+002	-2.121e-001	9.550e+002	2.007e-004
9.600e+002	-2.131e-001	9.600e+002	1.961e-004
9.650e+002	-2.141e-001	9.650e+002	1.982e-004
9.700e+002	-2.151e-001	9.700e+002	1.998e-004
9.750e+002	-2.161e-001	9.750e+002	1.992e-004
9.800e+002	-2.171e-001	9.800e+002	1.930e-004
9.850e+002	-2.181e-001	9.850e+002	1.983e-004
9.900e+002	-2.190e-001	9.900e+002	1.972e-004
9.950e+002	-2.200e-001	9.950e+002	2.004e-004
1.000e+003	-2.211e-001	1.000e+003	2.052e-004
1.005e+003	-2.220e-001	1.005e+003	1.945e-004
1.010e+003	-2.230e-001	1.010e+003	1.933e-004
1.015e+003	-2.240e-001	1.015e+003	2.030e-004
1.020e+003	-2.250e-001	1.020e+003	2.029e-004
1.025e+003	-2.260e-001	1.025e+003	1.968e-004
1.030e+003	-2.270e-001	1.030e+003	2.019e-004
1.035e+003	-2.280e-001	1.035e+003	1.989e-004
1.040e+003	-2.290e-001	1.040e+003	1.937e-004
1.045e+003	-2.300e-001	1.045e+003	1.925e-004
1.050e+003	-2.309e-001	1.050e+003	1.964e-004
1.055e+003	-2.319e-001	1.055e+003	1.993e-004
1.060e+003	-2.329e-001	1.060e+003	2.007e-004
1.065e+003	-2.340e-001	1.065e+003	2.072e-004
1.070e+003	-2.350e-001	1.070e+003	1.992e-004
1.075e+003	-2.360e-001	1.075e+003	2.011e-004
1.080e+003	-2.370e-001	1.080e+003	2.005e-004
1.085e+003	-2.380e-001	1.085e+003	1.952e-004
1.090e+003	-2.390e-001	1.090e+003	2.037e-004
1.095e+003	-2.399e-001	1.095e+003	1.941e-004
1.100e+003	-2.409e-001	1.100e+003	1.912e-004
1.105e+003	-2.419e-001	1.105e+003	1.986e-004
1.110e+003	-2.429e-001	1.110e+003	2.015e-004
1.115e+003	-2.439e-001	1.115e+003	2.021e-004
1.120e+003	-2.449e-001	1.120e+003	1.999e-004
1.125e+003	-2.459e-001	1.125e+003	2.012e-004
1.130e+003	-2.469e-001	1.130e+003	1.943e-004
1.135e+003	-2.479e-001	1.135e+003	1.988e-004
1.140e+003	-2.489e-001	1.140e+003	2.009e-004
1.145e+003	-2.499e-001	1.145e+003	2.042e-004
1.150e+003	-2.510e-001	1.150e+003	2.194e-004
1.155e+003	-2.520e-001	1.155e+003	2.015e-004
1.160e+003	-2.530e-001	1.160e+003	1.995e-004
1.165e+003	-2.540e-001	1.165e+003	1.972e-004
1.170e+003	-2.550e-001	1.170e+003	1.960e-004
1.175e+003	-2.559e-001	1.175e+003	1.931e-004
1.180e+003	-2.569e-001	1.180e+003	1.941e-004
1.185e+003	-2.579e-001	1.185e+003	1.977e-004
1.190e+003	-2.589e-001	1.190e+003	2.001e-004
1.195e+003	-2.599e-001	1.195e+003	1.948e-004
1.200e+003	-2.608e-001	1.200e+003	1.952e-004
1.205e+003	-2.619e-001	1.205e+003	2.006e-004
1.210e+003	-2.629e-001	1.210e+003	2.044e-004
1.215e+003	-2.638e-001	1.215e+003	1.903e-004
1.220e+003	-2.648e-001	1.220e+003	1.944e-004
1.225e+003	-2.658e-001	1.225e+003	1.998e-004
1.230e+003	-2.668e-001	1.230e+003	1.968e-004
1.235e+003	-2.677e-001	1.235e+003	1.914e-004
1.240e+003	-2.687e-001	1.240e+003	1.978e-004
1.245e+003	-2.697e-001	1.245e+003	1.973e-004
1.250e+003	-2.707e-001	1.250e+003	2.009e-004
1.255e+003	-2.717e-001	1.255e+003	1.963e-004
1.260e+003	-2.727e-001	1.260e+003	1.906e-004
1.265e+003	-2.736e-001	1.265e+003	1.987e-004
1.270e+003	-2.746e-001	1.270e+003	1.961e-004
1.275e+003	-2.756e-001	1.275e+003	1.988e-004
1.280e+003	-2.766e-001	1.280e+003	1.946e-004
1.285e+003	-2.776e-001	1.285e+003	2.005e-004
1.290e+003	-2.786e-001	1.290e+003	1.941e-004
1.295e+003	-2.795e-001	1.295e+003	1.921e-004
1.300e+003	-2.805e-001	1.300e+003	1.983e-004
1.305e+003	-2.815e-001	1.305e+003	1.909e-004
1.310e+003	-2.824e-001	1.310e+003	1.929e-004
1.315e+003	-2.834e-001	1.315e+003	2.017e-004
1.320e+003	-2.844e-001	1.320e+003	1.942e-004
1.325e+003	-2.854e-001	1.325e+003	1.921e-004
1.330e+003	-2.864e-001	1.330e+003	1.986e-004
1.335e+003	-2.873e-001	1.335e+003	1.936e-004
1.340e+003	-2.883e-001	1.340e+003	1.950e-004
1.345e+003	-2.893e-001	1.345e+003	1.970e-004
1.350e+003	-2.903e-001	1.350e+003	1.949e-004
1.355e+003	-2.912e-001	1.355e+003	1.929e-004
1.360e+003	-2.922e-001	1.360e+003	1.940e-004
1.365e+003	-2.932e-001	1.365e+003	1.961e-004
1.370e+003	-2.942e-001	1.370e+003	1.964e-004
1.375e+003	-2.951e-001	1.375e+003	1.962e-004
1.380e+003	-2.961e-001	1.380e+003	1.958e-004
1.385e+003	-2.971e-001	1.385e+003	2.021e-004
1.390e+003	-2.981e-001	1.390e+003	1.980e-004
1.395e+003	-2.991e-001	1.395e+003	1.985e-004
1.400e+003	-3.001e-001	1.400e+003	1.930e-004
1.405e+003	-3.011e-001	1.405e+003	1.996e-004
1.410e+003	-3.021e-001	1.410e+003	1.949e-004
1.415e+003	-3.030e-001	1.415e+003	1.931e-004
1.420e+003	-3.040e-001	1.420e+003	1.954e-004
1.425e+003	-3.050e-001	1.425e+003	1.956e-004
1.430e+003	-3.060e-001	1.430e+003	2.003e-004
1.435e+003	-3.070e-001	1.435e+003	1.961e-004
1.440e+003	-3.079e-001	1.440e+003	1.954e-004
1.445e+003	-3.089e-001	1.445e+003	1.903e-004
1.450e+003	-3.098e-001	1.450e+003	1.924e-004
1.455e+003	-3.108e-001	1.455e+003	1.969e-004
1.460e+003	-3.118e-001	1.460e+003	1.933e-004
1.465e+003	-3.128e-001	1.465e+003	1.903e-004
1.470e+003	-3.137e-001	1.470e+003	1.909e-004
1.475e+003	-3.147e-001	1.475e+003	1.915e-004
1.480e+003	-3.157e-001	1.480e+003	1.981e-004
1.485e+003	-3.166e-001	1.485e+003	1.867e-004
1.490e+003	-3.175e-001	1.490e+003	1.914e-004
1.495e+003	-3.185e-001	1.495e+003	1.958e-004
1.500e+003	-3.195e-001	1.500e+003	1.914e-004
1.505e+003	-3.205e-001	1.505e+003	1.966e-004
1.510e+003	-3.214e-001	1.510e+003	1.906e-004
1.515e+003	-3.224e-001	1.515e+003	1.953e-004
1.520e+003	-3.234e-001	1.520e+003	1.983e-004
1.525e+003	-3.244e-001	1.525e+003	1.951e-004
1.530e+003	-3.253e-001	1.530e+003	1.928e-004
1.535e+003	-3.263e-001	1.535e+003	1.971e-004
1.540e+003	-3.273e-001	1.540e+003	1.905e-004
1.545e+003	-3.282e-001	1.545e+003	1.947e-004
1.550e+003	-3.292e-001	1.550e+003	1.957e-004
1.555e+003	-3.302e-001	1.555e+003	1.921e-004
1.560e+003	-3.311e-001	1.560e+003	1.899e-004
1.565e+003	-3.321e-001	1.565e+003	1.964e-004
1.570e+003	-3.331e-001	1.570e+003	2.014e-004
1.575e+003	-3.341e-001	1.575e+003	1.919e-004
1.580e+003	-3.350e-001	1.580e+003	1.934e-004
1.585e+003	-3.360e-001	1.585e+003	1.898e-004
1.590e+003	-3.370e-001	1.590e+003	1.933e-004
1.595e+003	-3.379e-001	1.595e+003	1.947e-004
1.600e+003	-3.389e-001	1.600e+003	1.978e-004
1.605e+003	-3.399e-001	1.605e+003	1.946e-004
1.610e+003	-3.409e-001	1.610e+003	1.946e-004
1.615e+003	-3.418e-001	1.615e+003	1.900e-004
1.620e+003	-3.427e-001	1.620e+003	1.863e-004
1.625e+003	-3.437e-001	1.625e+003	1.952e-004
1.630e+003	-3.447e-001	1.630e+003	1.944e-004
1.635e+003	-3.457e-001	1.635e+003	1.947e-004
1.640e+003	-3.467e-001	1.640e+003	1.980e-004
1.645e+003	-3.476e-001	1.645e+003	1.955e-004
1.650e+003	-3.486e-001	1.650e+003	1.908e-004
1.655e+003	-3.495e-001	1.655e+003	1.928e-004
1.660e+003	-3.505e-001	1.660e+003	1.936e-004
1.665e+003	-3.515e-001	1.665e+003	1.912e-004
1.670e+003	-3.524e-001	1.670e+003	1.944e-004
1.675e+003	-3.534e-001	1.675e+003	1.917e-004
1.680e+003	-3.544e-001	1.680e+003	1.935e-004
1.685e+003	-3.553e-001	1.685e+003	1.956e-004
1.690e+003	-3.563e-001	1.690e+003	1.990e-004
1.695e+003	-3.573e-001	1.695e+003	1.929e-004
1.700e+003	-3.583e-001	1.700e+003	1.928e-004
1.705e+003	-3.592e-001	1.705e+003	1.905e-004
1.710e+003	-3.602e-001	1.710e+003	1.965e-004
1.715e+003	-3.612e-001	1.715e+003	1.899e-004
1.720e+003	-3.621e-001	1.720e+003	1.956e-004
1.725e+003	-3.631e-001	1.725e+003	1.944e-004
1.730e+003	-3.641e-001	1.730e+003	1.900e-004
1.735e+003	-3.650e-001	1.735e+003	1.897e-004
1.740e+003	-3.660e-001	1.740e+003	1.942e-004
1.745e+003	-3.669e-001	1.745e+003	1.900e-004
1.750e+003	-3.679e-001	1.750e+003	1.895e-004
1.755e+003	-3.688e-001	1.755e+003	1.920e-004
1.760e+003	-3.698e-001	1.760e+003	1.848e-004
1.765e+003	-3.707e-001	1.765e+003	1.833e-004
1.770e+003	-3.716e-001	1.770e+003	1.962e-004
1.775e+003	-3.726e-001	1.775e+003	1.927e-004
1.780e+003	-3.736e-001	1.780e+003	1.949e-004
1.785e+003	-3.746e-001	1.785e+003	1.969e-004
1.790e+003	-3.755e-001	1.790e+003	1.904e-004
1.795e+003	-3.765e-001	1.795e+003	1.883e-004
1.800e+003	-3.774e-001	1.800e+003	1.914e-004
1.805e+003	-3.784e-001	1.805e+003	1.887e-004
1.810e+003	-3.793e-001	1.810e+003	1.889e-004
1.815e+003	-3.803e-001	1.815e+003	1.949e-004
1.820e+003	-3.812e-001	1.820e+003	1.861e-004
1.825e+003	-3.822e-001	1.825e+003	1.917e-004
1.830e+003	-3.832e-001	1.830e+003	1.991e-004
1.835e+003	-3.842e-001	1.835e+003	1.970e-004
1.840e+003	-3.851e-001	1.840e+003	1.917e-004
1.845e+003	-3.861e-001	1.845e+003	1.942e-004
1.850e+003	-3.871e-001	1.850e+003	1.938e-004
1.855e+003	-3.880e-001	1.855e+003	1.935e-004
1.860e+003	-3.890e-001	1.860e+003	1.869e-004
1.865e+003	-3.899e-001	1.865e+003	1.921e-004
1.870e+003	-3.909e-001	1.870e+003	1.905e-004
1.875e+003	-3.918e-001	1.875e+003	1.928e-004
1.880e+003	-3.928e-001	1.880e+003	1.905e-004
1.885e+003	-3.937e-001	1.885e+003	1.922e-004
1.890e+003	-3.947e-001	1.890e+003	1.916e-004
1.895e+003	-3.956e-001	1.895e+003	1.821e-004
1.900e+003	-3.965e-001	1.900e+003	1.872e-004
1.905e+003	-3.975e-001	1.905e+003	1.923e-004
1.910e+003	-3.984e-001	1.910e+003	1.851e-004
1.915e+003	-3.994e-001	1.915e+003	1.922e-004
1.920e+003	-4.004e-001	1.920e+003	1.959e-004
1.925e+003	-4.013e-001	1.925e+003	1.875e-004
1.930e+003	-4.023e-001	1.930e+003	1.941e-004
1.935e+003	-4.032e-001	1.935e+003	1.926e-004
1.940e+003	-4.042e-001	1.940e+003	1.930e-004
1.945e+003	-4.051e-001	1.945e+003	1.874e-004
1.950e+003	-4.061e-001	1.950e+003	1.857e-004
1.955e+003	-4.070e-001	1.955e+003	1.886e-004
1.960e+003	-4.080e-001	1.960e+003	1.903e-004
1.965e+003	-4.089e-001	1.965e+003	1.869e-004
1.970e+003	-4.098e-001	1.970e+003	1.884e-004
1.975e+003	-4.108e-001	1.975e+003	1.952e-004
1.980e+003	-4.118e-001	1.980e+003	1.874e-004
1.985e+003	-4.127e-001	1.985e+003	1.927e-004
1.990e+003	-4.137e-001	1.990e+003	1.949e-004
1.995e+003	-4.147e-001	1.995e+003	1.929e-004
2.000e+003	-4.156e-001	2.000e+003	1.883e-004
2.005e+003	-4.165e-001	2.005e+003	1.860e-004
2.010e+003	-4.175e-001	2.010e+003	1.922e-004
2.015e+003	-4.185e-001	2.015e+003	1.920e-004
2.020e+003	-4.194e-001	2.020e+003	1.929e-004
2.025e+003	-4.204e-001	2.025e+003	1.934e-004
2.030e+003	-4.213e-001	2.030e+003	1.877e-004
2.035e+003	-4.223e-001	2.035e+003	1.977e-004
2.040e+003	-4.233e-001	2.040e+003	1.894e-004
2.045e+003	-4.242e-001	2.045e+003	1.860e-004
2.050e+003	-4.251e-001	2.050e+003	1.826e-004
2.055e+003	-4.260e-001	2.055e+003	1.867e-004
2.060e+003	-4.270e-001	2.060e+003	1.907e-004
2.065e+003	-4.279e-001	2.065e+003	1.909e-004
2.070e+003	-4.289e-001	2.070e+003	1.928e-004
2.075e+003	-4.299e-001	2.075e+003	1.918e-004
2.080e+003	-4.308e-001	2.080e+003	1.876e-004
2.085e+003	-4.318e-001	2.085e+003	1.916e-004
2.090e+003	-4.327e-001	2.090e+003	1.908e-004
2.095e+003	-4.336e-001	2.095e+003	1.869e-004
2.100e+003	-4.346e-001	2.100e+003	1.887e-004
2.105e+003	-4.355e-001	2.105e+003	1.896e-004
2.110e+003	-4.365e-001	2.110e+003	1.928e-004
2.115e+003	-4.374e-001	2.115e+003	1.801e-004
2.120e+003	-4.383e-001	2.120e+003	1.890e-004
2.125e+003	-4.393e-001	2.125e+003	1.934e-004
2.130e+003	-4.403e-001	2.130e+003	1.889e-004
2.135e+003	-4.412e-001	2.135e+003	1.907e-004
2.140e+003	-4.422e-001	2.140e+003	1.905e-004
2.145e+003	-4.431e-001	2.145e+003	1.896e-004
2.150e+003	-4.441e-001	2.150e+003	1.901e-004
2.155e+003	-4.450e-001	2.155e+003	1.928e-004
2.160e+003	-4.460e-001	2.160e+003	1.895e-004
