time (s)	charge (C)	time (s)	current (A)
0.000e+000	8.696e-005	0.000e+000	1.739e-005
5.000e+000	1.354e-004	5.000e+000	9.691e-006
1.000e+001	-2.013e-003	1.000e+001	4.297e-004
1.500e+001	-3.336e-003	1.500e+001	2.646e-004
2.000e+001	-4.314e-003	2.000e+001	1.955e-004
2.500e+001	-5.093e-003	2.500e+001	1.558e-004
3.000e+001	-5.741e-003	3.000e+001	1.296e-004
3.500e+001	-6.296e-003	3.500e+001	1.111e-004
4.000e+001	-6.783e-003	4.000e+001	9.741e-005
4.500e+001	-7.218e-003	4.500e+001	8.701e-005
5.000e+001	-7.613e-003	5.000e+001	7.891e-005
5.500e+001	-7.974e-003	5.500e+001	7.221e-005
6.000e+001	-8.309e-003	6.000e+001	6.691e-005
6.500e+001	-8.623e-003	6.500e+001	6.291e-005
7.000e+001	-9.456e-003	7.000e+001	1.666e-004
7.500e+001	-1.047e-002	7.500e+001	2.031e-004
8.000e+001	-1.147e-002	8.000e+001	2.000e-004
8.500e+001	-1.250e-002	8.500e+001	2.048e-004
9.000e+001	-1.349e-002	9.000e+001	1.995e-004
9.500e+001	-1.446e-002	9.500e+001	1.930e-004
1.000e+002	-1.544e-002	1.000e+002	1.962e-004
1.050e+002	-1.644e-002	1.050e+002	1.998e-004
1.100e+002	-1.742e-002	1.100e+002	1.957e-004
1.150e+002	-1.841e-002	1.150e+002	1.995e-004
1.200e+002	-1.938e-002	1.200e+002	1.931e-004
1.250e+002	-2.037e-002	1.250e+002	1.971e-004
1.300e+002	-2.135e-002	1.300e+002	1.969e-004
1.350e+002	-2.228e-002	1.350e+002	1.866e-004
1.400e+002	-2.324e-002	1.400e+002	1.905e-004
1.450e+002	-2.415e-002	1.450e+002	1.827e-004
1.500e+002	-2.509e-002	1.500e+002	1.891e-004
1.550e+002	-2.602e-002	1.550e+002	1.843e-004
1.600e+002	-2.690e-002	1.600e+002	1.773e-004
1.650e+002	-2.783e-002	1.650e+002	1.848e-004
1.700e+002	-2.870e-002	1.700e+002	1.744e-004
1.750e+002	-2.957e-002	1.750e+002	1.742e-004
1.800e+002	-3.047e-002	1.800e+002	1.793e-004
1.850e+002	-3.133e-002	1.850e+002	1.718e-004
1.900e+002	-3.218e-002	1.900e+002	1.713e-004
1.950e+002	-3.307e-002	1.950e+002	1.769e-004
2.000e+002	-3.392e-002	2.000e+002	1.707e-004
2.050e+002	-3.476e-002	2.050e+002	1.672e-004
2.100e+002	-3.563e-002	2.100e+002	1.752e-004
2.150e+002	-3.645e-002	2.150e+002	1.626e-004
2.200e+002	-3.727e-002	2.200e+002	1.648e-004
2.250e+002	-3.810e-002	2.250e+002	1.658e-004
2.300e+002	-3.893e-002	2.300e+002	1.657e-004
2.350e+002	-3.972e-002	2.350e+002	1.591e-004
2.400e+002	-4.052e-002	2.400e+002	1.602e-004
2.450e+002	-4.136e-002	2.450e+002	1.674e-004
2.500e+002	-4.225e-002	2.500e+002	1.787e-004
2.550e+002	-4.306e-002	2.550e+002	1.613e-004
2.600e+002	-4.386e-002	2.600e+002	1.593e-004
2.650e+002	-4.465e-002	2.650e+002	1.579e-004
2.700e+002	-4.540e-002	2.700e+002	1.500e-004
2.750e+002	-4.614e-002	2.750e+002	1.492e-004
2.800e+002	-4.689e-002	2.800e+002	1.503e-004
2.850e+002	-4.766e-002	2.850e+002	1.527e-004
2.900e+002	-4.842e-002	2.900e+002	1.534e-004
2.950e+002	-4.916e-002	2.950e+002	1.476e-004
3.000e+002	-4.990e-002	3.000e+002	1.480e-004
3.050e+002	-5.061e-002	3.050e+002	1.418e-004
3.100e+002	-5.136e-002	3.100e+002	1.497e-004
3.150e+002	-5.210e-002	3.150e+002	1.487e-004
3.200e+002	-5.281e-002	3.200e+002	1.415e-004
3.250e+002	-5.352e-002	3.250e+002	1.426e-004
3.300e+002	-5.423e-002	3.300e+002	1.417e-004
3.350e+002	-5.495e-002	3.350e+002	1.435e-004
3.400e+002	-5.564e-002	3.400e+002	1.381e-004
3.450e+002	-5.634e-002	3.450e+002	1.398e-004
3.500e+002	-5.702e-002	3.500e+002	1.367e-004
3.550e+002	-5.772e-002	3.550e+002	1.387e-004
3.600e+002	-5.840e-002	3.600e+002	1.361e-004
3.650e+002	-5.906e-002	3.650e+002	1.331e-004
3.700e+002	-5.974e-002	3.700e+002	1.357e-004
3.750e+002	-6.043e-002	3.750e+002	1.371e-004
3.800e+002	-6.107e-002	3.800e+002	1.283e-004
3.850e+002	-6.174e-002	3.850e+002	1.341e-004
3.900e+002	-6.239e-002	3.900e+002	1.303e-004
3.950e+002	-6.305e-002	3.950e+002	1.309e-004
4.000e+002	-6.370e-002	4.000e+002	1.301e-004
4.050e+002	-6.438e-002	4.050e+002	1.377e-004
4.100e+002	-6.501e-002	4.100e+002	1.258e-004
4.150e+002	-6.564e-002	4.150e+002	1.245e-004
4.200e+002	-6.629e-002	4.200e+002	1.312e-004
4.250e+002	-6.693e-002	4.250e+002	1.274e-004
4.300e+002	-6.756e-002	4.300e+002	1.256e-004
4.350e+002	-6.816e-002	4.350e+002	1.209e-004
4.400e+002	-6.877e-002	4.400e+002	1.219e-004
4.450e+002	-6.938e-002	4.450e+002	1.213e-004
4.500e+002	-7.002e-002	4.500e+002	1.274e-004
4.550e+002	-7.063e-002	4.550e+002	1.233e-004
4.600e+002	-7.124e-002	4.600e+002	1.212e-004
4.650e+002	-7.186e-002	4.650e+002	1.237e-004
4.700e+002	-7.245e-002	4.700e+002	1.196e-004
4.750e+002	-7.304e-002	4.750e+002	1.162e-004
4.800e+002	-7.361e-002	4.800e+002	1.140e-004
4.850e+002	-7.421e-002	4.850e+002	1.212e-004
4.900e+002	-7.476e-002	4.900e+002	1.103e-004
4.950e+002	-7.535e-002	4.950e+002	1.167e-004
5.000e+002	-7.591e-002	5.000e+002	1.127e-004
5.050e+002	-7.646e-002	5.050e+002	1.103e-004
5.100e+002	-7.703e-002	5.100e+002	1.135e-004
5.150e+002	-7.758e-002	5.150e+002	1.111e-004
5.200e+002	-7.813e-002	5.200e+002	1.087e-004
5.250e+002	-7.868e-002	5.250e+002	1.101e-004
5.300e+002	-7.924e-002	5.300e+002	1.126e-004
5.350e+002	-7.978e-002	5.350e+002	1.072e-004
5.400e+002	-8.033e-002	5.400e+002	1.100e-004
5.450e+002	-8.087e-002	5.450e+002	1.094e-004
5.500e+002	-8.140e-002	5.500e+002	1.056e-004
5.550e+002	-8.193e-002	5.550e+002	1.057e-004
5.600e+002	-8.247e-002	5.600e+002	1.083e-004
5.650e+002	-8.299e-002	5.650e+002	1.027e-004
5.700e+002	-8.351e-002	5.700e+002	1.040e-004
5.750e+002	-8.403e-002	5.750e+002	1.055e-004
5.800e+002	-8.455e-002	5.800e+002	1.035e-004
5.850e+002	-8.506e-002	5.850e+002	1.018e-004
5.900e+002	-8.558e-002	5.900e+002	1.039e-004
5.950e+002	-8.608e-002	5.950e+002	1.002e-004
6.000e+002	-8.659e-002	6.000e+002	1.021e-004
6.050e+002	-8.711e-002	6.050e+002	1.033e-004
6.100e+002	-8.760e-002	6.100e+002	9.761e-005
6.150e+002	-8.810e-002	6.150e+002	1.008e-004
6.200e+002	-8.860e-002	6.200e+002	9.921e-005
6.250e+002	-8.910e-002	6.250e+002	9.971e-005
6.300e+002	-8.959e-002	6.300e+002	9.881e-005
6.350e+002	-9.007e-002	6.350e+002	9.581e-005
6.400e+002	-9.055e-002	6.400e+002	9.591e-005
6.450e+002	-9.102e-002	6.450e+002	9.431e-005
6.500e+002	-9.150e-002	6.500e+002	9.591e-005
6.550e+002	-9.199e-002	6.550e+002	9.801e-005
6.600e+002	-9.246e-002	6.600e+002	9.461e-005
6.650e+002	-9.293e-002	6.650e+002	9.311e-005
6.700e+002	-9.340e-002	6.700e+002	9.501e-005
6.750e+002	-9.386e-002	6.750e+002	9.141e-005
6.800e+002	-9.431e-002	6.800e+002	8.961e-005
6.850e+002	-9.478e-002	6.850e+002	9.351e-005
6.900e+002	-9.523e-002	6.900e+002	9.051e-005
6.950e+002	-9.568e-002	6.950e+002	9.001e-005
7.000e+002	-9.613e-002	7.000e+002	9.091e-005
7.050e+002	-9.660e-002	7.050e+002	9.261e-005
7.100e+002	-9.704e-002	7.100e+002	8.871e-005
7.150e+002	-9.748e-002	7.150e+002	8.761e-005
7.200e+002	-9.792e-002	7.200e+002	8.861e-005
7.250e+002	-9.835e-002	7.250e+002	8.691e-005
7.300e+002	-9.877e-002	7.300e+002	8.341e-005
7.350e+002	-9.921e-002	7.350e+002	8.691e-005
7.400e+002	-9.965e-002	7.400e+002	8.871e-005
7.450e+002	-1.001e-001	7.450e+002	8.611e-005
7.500e+002	-1.005e-001	7.500e+002	8.441e-005
7.550e+002	-1.009e-001	7.550e+002	8.471e-005
7.600e+002	-1.013e-001	7.600e+002	8.461e-005
7.650e+002	-1.017e-001	7.650e+002	7.901e-005
7.700e+002	-1.022e-001	7.700e+002	8.261e-005
7.750e+002	-1.026e-001	7.750e+002	8.371e-005
7.800e+002	-1.030e-001	7.800e+002	8.101e-005
7.850e+002	-1.034e-001	7.850e+002	7.981e-005
7.900e+002	-1.038e-001	7.900e+002	8.091e-005
7.950e+002	-1.042e-001	7.950e+002	8.151e-005
8.000e+002	-1.046e-001	8.000e+002	7.821e-005
8.050e+002	-1.050e-001	8.050e+002	7.731e-005
8.100e+002	-1.054e-001	8.100e+002	7.981e-005
8.150e+002	-1.058e-001	8.150e+002	7.651e-005
8.200e+002	-1.061e-001	8.200e+002	7.711e-005
8.250e+002	-1.065e-001	8.250e+002	7.861e-005
8.300e+002	-1.069e-001	8.300e+002	8.001e-005
8.350e+002	-1.073e-001	8.350e+002	7.581e-005
8.400e+002	-1.077e-001	8.400e+002	7.521e-005
8.450e+002	-1.081e-001	8.450e+002	7.471e-005
8.500e+002	-1.084e-001	8.500e+002	7.551e-005
8.550e+002	-1.088e-001	8.550e+002	7.111e-005
8.600e+002	-1.091e-001	8.600e+002	7.151e-005
8.650e+002	-1.095e-001	8.650e+002	7.511e-005
8.700e+002	-1.099e-001	8.700e+002	7.291e-005
8.750e+002	-1.102e-001	8.750e+002	7.191e-005
8.800e+002	-1.106e-001	8.800e+002	7.171e-005
8.850e+002	-1.110e-001	8.850e+002	7.271e-005
8.900e+002	-1.113e-001	8.900e+002	7.001e-005
8.950e+002	-1.117e-001	8.950e+002	7.021e-005
9.000e+002	-1.120e-001	9.000e+002	7.251e-005
9.050e+002	-1.124e-001	9.050e+002	7.041e-005
9.100e+002	-1.127e-001	9.100e+002	6.881e-005
9.150e+002	-1.131e-001	9.150e+002	7.051e-005
9.200e+002	-1.134e-001	9.200e+002	6.811e-005
9.250e+002	-1.138e-001	9.250e+002	6.781e-005
9.300e+002	-1.141e-001	9.300e+002	6.721e-005
9.350e+002	-1.144e-001	9.350e+002	6.801e-005
9.400e+002	-1.148e-001	9.400e+002	6.671e-005
9.450e+002	-1.151e-001	9.450e+002	6.451e-005
9.500e+002	-1.154e-001	9.500e+002	6.721e-005
9.550e+002	-1.158e-001	9.550e+002	6.661e-005
9.600e+002	-1.161e-001	9.600e+002	6.351e-005
9.650e+002	-1.164e-001	9.650e+002	6.371e-005
9.700e+002	-1.167e-001	9.700e+002	6.581e-005
9.750e+002	-1.170e-001	9.750e+002	6.251e-005
9.800e+002	-1.174e-001	9.800e+002	6.441e-005
9.850e+002	-1.177e-001	9.850e+002	6.331e-005
9.900e+002	-1.180e-001	9.900e+002	6.351e-005
9.950e+002	-1.183e-001	9.950e+002	6.151e-005
1.000e+003	-1.186e-001	1.000e+003	6.091e-005
1.005e+003	-1.189e-001	1.005e+003	6.231e-005
1.010e+003	-1.192e-001	1.010e+003	6.191e-005
1.015e+003	-1.195e-001	1.015e+003	6.111e-005
1.020e+003	-1.198e-001	1.020e+003	6.221e-005
1.025e+003	-1.202e-001	1.025e+003	6.101e-005
1.030e+003	-1.205e-001	1.030e+003	6.071e-005
1.035e+003	-1.207e-001	1.035e+003	5.761e-005
1.040e+003	-1.211e-001	1.040e+003	6.211e-005
1.045e+003	-1.214e-001	1.045e+003	6.051e-005
1.050e+003	-1.217e-001	1.050e+003	6.001e-005
1.055e+003	-1.220e-001	1.055e+003	6.051e-005
1.060e+003	-1.222e-001	1.060e+003	5.821e-005
1.065e+003	-1.225e-001	1.065e+003	5.671e-005
1.070e+003	-1.228e-001	1.070e+003	5.901e-005
1.075e+003	-1.231e-001	1.075e+003	5.761e-005
1.080e+003	-1.234e-001	1.080e+003	5.651e-005
1.085e+003	-1.237e-001	1.085e+003	5.651e-005
1.090e+003	-1.240e-001	1.090e+003	5.821e-005
1.095e+003	-1.243e-001	1.095e+003	5.671e-005
1.100e+003	-1.245e-001	1.100e+003	5.381e-005
1.105e+003	-1.248e-001	1.105e+003	5.831e-005
1.110e+003	-1.251e-001	1.110e+003	5.641e-005
1.115e+003	-1.254e-001	1.115e+003	5.391e-005
1.120e+003	-1.256e-001	1.120e+003	5.341e-005
1.125e+003	-1.259e-001	1.125e+003	5.591e-005
1.130e+003	-1.262e-001	1.130e+003	5.261e-005
1.135e+003	-1.264e-001	1.135e+003	5.221e-005
1.140e+003	-1.267e-001	1.140e+003	5.291e-005
1.145e+003	-1.270e-001	1.145e+003	5.451e-005
1.150e+003	-1.272e-001	1.150e+003	5.191e-005
1.155e+003	-1.275e-001	1.155e+003	5.121e-005
1.160e+003	-1.278e-001	1.160e+003	5.201e-005
1.165e+003	-1.280e-001	1.165e+003	5.071e-005
1.170e+003	-1.283e-001	1.170e+003	4.941e-005
1.175e+003	-1.285e-001	1.175e+003	5.231e-005
1.180e+003	-1.288e-001	1.180e+003	5.201e-005
1.185e+003	-1.290e-001	1.185e+003	5.001e-005
1.190e+003	-1.293e-001	1.190e+003	5.051e-005
1.195e+003	-1.295e-001	1.195e+003	5.091e-005
1.200e+003	-1.298e-001	1.200e+003	4.951e-005
1.205e+003	-1.300e-001	1.205e+003	4.721e-005
1.210e+003	-1.303e-001	1.210e+003	5.011e-005
1.215e+003	-1.305e-001	1.215e+003	5.131e-005
1.220e+003	-1.308e-001	1.220e+003	4.721e-005
1.225e+003	-1.310e-001	1.225e+003	4.721e-005
1.230e+003	-1.312e-001	1.230e+003	4.951e-005
1.235e+003	-1.315e-001	1.235e+003	4.951e-005
1.240e+003	-1.317e-001	1.240e+003	4.631e-005
1.245e+003	-1.320e-001	1.245e+003	4.781e-005
1.250e+003	-1.322e-001	1.250e+003	4.901e-005
1.255e+003	-1.324e-001	1.255e+003	4.631e-005
1.260e+003	-1.327e-001	1.260e+003	4.711e-005
1.265e+003	-1.329e-001	1.265e+003	4.801e-005
1.270e+003	-1.331e-001	1.270e+003	4.541e-005
1.275e+003	-1.334e-001	1.275e+003	4.641e-005
1.280e+003	-1.336e-001	1.280e+003	4.671e-005
1.285e+003	-1.338e-001	1.285e+003	4.691e-005
1.290e+003	-1.341e-001	1.290e+003	4.401e-005
1.295e+003	-1.343e-001	1.295e+003	4.491e-005
1.300e+003	-1.345e-001	1.300e+003	4.451e-005
1.305e+003	-1.347e-001	1.305e+003	4.401e-005
1.310e+003	-1.349e-001	1.310e+003	4.391e-005
1.315e+003	-1.352e-001	1.315e+003	4.401e-005
1.320e+003	-1.354e-001	1.320e+003	4.411e-005
1.325e+003	-1.356e-001	1.325e+003	4.381e-005
1.330e+003	-1.358e-001	1.330e+003	4.141e-005
1.335e+003	-1.360e-001	1.335e+003	4.451e-005
1.340e+003	-1.363e-001	1.340e+003	4.441e-005
1.345e+003	-1.365e-001	1.345e+003	4.071e-005
1.350e+003	-1.367e-001	1.350e+003	4.121e-005
1.355e+003	-1.369e-001	1.355e+003	4.311e-005
1.360e+003	-1.371e-001	1.360e+003	4.161e-005
1.365e+003	-1.373e-001	1.365e+003	4.041e-005
1.370e+003	-1.375e-001	1.370e+003	4.111e-005
1.375e+003	-1.377e-001	1.375e+003	4.111e-005
1.380e+003	-1.379e-001	1.380e+003	4.051e-005
1.385e+003	-1.381e-001	1.385e+003	4.121e-005
1.390e+003	-1.383e-001	1.390e+003	4.251e-005
1.395e+003	-1.385e-001	1.395e+003	3.891e-005
1.400e+003	-1.387e-001	1.400e+003	3.851e-005
1.405e+003	-1.389e-001	1.405e+003	3.961e-005
1.410e+003	-1.391e-001	1.410e+003	4.071e-005
1.415e+003	-1.393e-001	1.415e+003	3.931e-005
1.420e+003	-1.395e-001	1.420e+003	3.891e-005
1.425e+003	-1.397e-001	1.425e+003	3.941e-005
1.430e+003	-1.399e-001	1.430e+003	3.921e-005
1.435e+003	-1.401e-001	1.435e+003	3.671e-005
1.440e+003	-1.403e-001	1.440e+003	3.711e-005
1.445e+003	-1.405e-001	1.445e+003	3.971e-005
1.450e+003	-1.407e-001	1.450e+003	3.851e-005
1.455e+003	-1.408e-001	1.455e+003	3.581e-005
1.460e+003	-1.410e-001	1.460e+003	3.881e-005
1.465e+003	-1.412e-001	1.465e+003	3.881e-005
1.470e+003	-1.414e-001	1.470e+003	3.611e-005
1.475e+003	-1.416e-001	1.475e+003	3.691e-005
1.480e+003	-1.418e-001	1.480e+003	3.881e-005
1.485e+003	-1.420e-001	1.485e+003	3.511e-005
1.490e+003	-1.421e-001	1.490e+003	3.531e-005
1.495e+003	-1.423e-001	1.495e+003	3.641e-005
1.500e+003	-1.425e-001	1.500e+003	3.701e-005
1.505e+003	-1.427e-001	1.505e+003	3.421e-005
1.510e+003	-1.429e-001	1.510e+003	3.621e-005
1.515e+003	-1.430e-001	1.515e+003	3.531e-005
1.520e+003	-1.432e-001	1.520e+003	3.631e-005
1.525e+003	-1.434e-001	1.525e+003	3.321e-005
1.530e+003	-1.435e-001	1.530e+003	3.401e-005
1.535e+003	-1.437e-001	1.535e+003	3.501e-005
1.540e+003	-1.439e-001	1.540e+003	3.531e-005
1.545e+003	-1.441e-001	1.545e+003	3.411e-005
1.550e+003	-1.442e-001	1.550e+003	3.421e-005
1.555e+003	-1.444e-001	1.555e+003	3.551e-005
1.560e+003	-1.446e-001	1.560e+003	3.321e-005
1.565e+003	-1.447e-001	1.565e+003	3.261e-005
1.570e+003	-1.449e-001	1.570e+003	3.391e-005
1.575e+003	-1.451e-001	1.575e+003	3.491e-005
1.580e+003	-1.453e-001	1.580e+003	3.201e-005
1.585e+003	-1.454e-001	1.585e+003	3.211e-005
1.590e+003	-1.456e-001	1.590e+003	3.321e-005
1.595e+003	-1.457e-001	1.595e+003	3.281e-005
1.600e+003	-1.459e-001	1.600e+003	3.081e-005
1.605e+003	-1.461e-001	1.605e+003	3.131e-005
1.610e+003	-1.462e-001	1.610e+003	3.261e-005
1.615e+003	-1.464e-001	1.615e+003	3.311e-005
1.620e+003	-1.465e-001	1.620e+003	3.061e-005
1.625e+003	-1.467e-001	1.625e+003	3.181e-005
1.630e+003	-1.469e-001	1.630e+003	3.271e-005
1.635e+003	-1.470e-001	1.635e+003	3.151e-005
1.640e+003	-1.472e-001	1.640e+003	3.011e-005
1.645e+003	-1.473e-001	1.645e+003	3.071e-005
1.650e+003	-1.475e-001	1.650e+003	3.231e-005
1.655e+003	-1.476e-001	1.655e+003	3.031e-005
1.660e+003	-1.478e-001	1.660e+003	2.901e-005
1.665e+003	-1.479e-001	1.665e+003	3.051e-005
1.670e+003	-1.481e-001	1.670e+003	3.141e-005
1.675e+003	-1.482e-001	1.675e+003	2.851e-005
1.680e+003	-1.484e-001	1.680e+003	2.951e-005
1.685e+003	-1.485e-001	1.685e+003	3.041e-005
1.690e+003	-1.487e-001	1.690e+003	3.101e-005
1.695e+003	-1.488e-001	1.695e+003	2.781e-005
1.700e+003	-1.490e-001	1.700e+003	2.791e-005
1.705e+003	-1.491e-001	1.705e+003	2.961e-005
1.710e+003	-1.493e-001	1.710e+003	2.911e-005
1.715e+003	-1.494e-001	1.715e+003	2.881e-005
1.720e+003	-1.495e-001	1.720e+003	2.841e-005
1.725e+003	-1.497e-001	1.725e+003	2.831e-005
1.730e+003	-1.498e-001	1.730e+003	2.771e-005
1.735e+003	-1.500e-001	1.735e+003	2.741e-005
1.740e+003	-1.501e-001	1.740e+003	2.841e-005
1.745e+003	-1.503e-001	1.745e+003	2.941e-005
1.750e+003	-1.504e-001	1.750e+003	2.751e-005
1.755e+003	-1.505e-001	1.755e+003	2.731e-005
1.760e+003	-1.507e-001	1.760e+003	2.701e-005
1.765e+003	-1.508e-001	1.765e+003	2.861e-005
1.770e+003	-1.509e-001	1.770e+003	2.651e-005
1.775e+003	-1.511e-001	1.775e+003	2.641e-005
1.780e+003	-1.512e-001	1.780e+003	2.771e-005
1.785e+003	-1.513e-001	1.785e+003	2.711e-005
1.790e+003	-1.515e-001	1.790e+003	2.501e-005
1.795e+003	-1.516e-001	1.795e+003	2.601e-005
1.800e+003	-1.517e-001	1.800e+003	2.801e-005
1.805e+003	-1.519e-001	1.805e+003	2.671e-005
1.810e+003	-1.520e-001	1.810e+003	2.531e-005
1.815e+003	-1.521e-001	1.815e+003	2.511e-005
1.820e+003	-1.523e-001	1.820e+003	2.751e-005
1.825e+003	-1.524e-001	1.825e+003	2.541e-005
1.830e+003	-1.525e-001	1.830e+003	2.431e-005
1.835e+003	-1.526e-001	1.835e+003	2.591e-005
1.840e+003	-1.528e-001	1.840e+003	2.691e-005
1.845e+003	-1.529e-001	1.845e+003	2.431e-005
1.850e+003	-1.530e-001	1.850e+003	2.511e-005
1.855e+003	-1.531e-001	1.855e+003	2.541e-005
1.860e+003	-1.533e-001	1.860e+003	2.681e-005
1.865e+003	-1.534e-001	1.865e+003	2.391e-005
1.870e+003	-1.535e-001	1.870e+003	2.391e-005
1.875e+003	-1.536e-001	1.875e+003	2.511e-005
1.880e+003	-1.538e-001	1.880e+003	2.431e-005
1.885e+003	-1.539e-001	1.885e+003	2.331e-005
1.890e+003	-1.540e-001	1.890e+003	2.431e-005
1.895e+003	-1.541e-001	1.895e+003	2.571e-005
1.900e+003	-1.542e-001	1.900e+003	2.311e-005
1.905e+003	-1.544e-001	1.905e+003	2.291e-005
1.910e+003	-1.545e-001	1.910e+003	2.371e-005
1.915e+003	-1.546e-001	1.915e+003	2.541e-005
1.920e+003	-1.547e-001	1.920e+003	2.411e-005
1.925e+003	-1.548e-001	1.925e+003	2.281e-005
1.930e+003	-1.550e-001	1.930e+003	2.421e-005
1.935e+003	-1.551e-001	1.935e+003	2.351e-005
1.940e+003	-1.552e-001	1.940e+003	2.191e-005
1.945e+003	-1.553e-001	1.945e+003	2.251e-005
1.950e+003	-1.554e-001	1.950e+003	2.371e-005
1.955e+003	-1.555e-001	1.955e+003	2.271e-005
1.960e+003	-1.556e-001	1.960e+003	2.191e-005
1.965e+003	-1.558e-001	1.965e+003	2.231e-005
1.970e+003	-1.559e-001	1.970e+003	2.471e-005
1.975e+003	-1.560e-001	1.975e+003	2.261e-005
1.980e+003	-1.561e-001	1.980e+003	2.091e-005
1.985e+003	-1.562e-001	1.985e+003	2.251e-005
1.990e+003	-1.563e-001	1.990e+003	2.361e-005
1.995e+003	-1.564e-001	1.995e+003	2.041e-005
2.000e+003	-1.565e-001	2.000e+003	2.041e-005
2.005e+003	-1.566e-001	2.005e+003	2.291e-005
2.010e+003	-1.568e-001	2.010e+003	2.251e-005
2.015e+003	-1.569e-001	2.015e+003	2.091e-005
2.020e+003	-1.570e-001	2.020e+003	2.061e-005
2.025e+003	-1.571e-001	2.025e+003	2.221e-005
2.030e+003	-1.572e-001	2.030e+003	2.161e-005
2.035e+003	-1.573e-001	2.035e+003	1.981e-005
2.040e+003	-1.574e-001	2.040e+003	2.041e-005
2.045e+003	-1.575e-001	2.045e+003	2.251e-005
2.050e+003	-1.576e-001	2.050e+003	2.061e-005
2.055e+003	-1.577e-001	2.055e+003	2.081e-005
2.060e+003	-1.578e-001	2.060e+003	2.131e-005
2.065e+003	-1.579e-001	2.065e+003	2.161e-005
2.070e+003	-1.580e-001	2.070e+003	1.921e-005
2.075e+003	-1.581e-001	2.075e+003	1.981e-005
2.080e+003	-1.582e-001	2.080e+003	2.091e-005
2.085e+003	-1.583e-001	2.085e+003	2.021e-005
2.090e+003	-1.584e-001	2.090e+003	1.901e-005
2.095e+003	-1.585e-001	2.095e+003	2.021e-005
2.100e+003	-1.586e-001	2.100e+003	2.141e-005
2.105e+003	-1.587e-001	2.105e+003	1.931e-005
2.110e+003	-1.588e-001	2.110e+003	1.881e-005
2.115e+003	-1.589e-001	2.115e+003	1.981e-005
2.120e+003	-1.590e-001	2.120e+003	2.081e-005
2.125e+003	-1.591e-001	2.125e+003	1.791e-005
2.130e+003	-1.592e-001	2.130e+003	1.901e-005
2.135e+003	-1.593e-001	2.135e+003	2.051e-005
2.140e+003	-1.594e-001	2.140e+003	1.941e-005
2.145e+003	-1.595e-001	2.145e+003	1.861e-005
2.150e+003	-1.596e-001	2.150e+003	1.851e-005
2.155e+003	-1.597e-001	2.155e+003	2.001e-005
2.160e+003	-1.598e-001	2.160e+003	1.941e-005
